Velocity,NormIntensity
mm/s,a.u.
-9.7,1
-9.6879,0.99996
-9.6758,0.99993
-9.6636,0.99989
-9.6515,0.99985
-9.6394,0.99981
-9.6273,0.99977
-9.6151,0.99973
-9.603,0.99968
-9.5909,0.99964
-9.5787,0.9996
-9.5666,0.99955
-9.5545,0.99951
-9.5424,0.99946
-9.5303,0.99942
-9.5181,0.99937
-9.506,0.99932
-9.4939,0.99927
-9.4817,0.99922
-9.4696,0.99917
-9.4575,0.99912
-9.4454,0.99906
-9.4332,0.99901
-9.4211,0.99895
-9.409,0.99889
-9.3969,0.99884
-9.3848,0.99878
-9.3726,0.99872
-9.3605,0.99865
-9.3484,0.99859
-9.3362,0.99853
-9.3241,0.99846
-9.312,0.99839
-9.2999,0.99832
-9.2878,0.99825
-9.2756,0.99818
-9.2635,0.99811
-9.2514,0.99803
-9.2393,0.99795
-9.2271,0.99787
-9.215,0.99779
-9.2029,0.99771
-9.1907,0.99763
-9.1786,0.99754
-9.1665,0.99745
-9.1544,0.99736
-9.1423,0.99726
-9.1301,0.99717
-9.118,0.99707
-9.1059,0.99697
-9.0938,0.99686
-9.0816,0.99676
-9.0695,0.99665
-9.0574,0.99654
-9.0452,0.99642
-9.0331,0.9963
-9.021,0.99618
-9.0089,0.99605
-8.9968,0.99592
-8.9846,0.99579
-8.9725,0.99565
-8.9604,0.99551
-8.9482,0.99537
-8.9361,0.99522
-8.924,0.99506
-8.9119,0.99491
-8.8997,0.99474
-8.8876,0.99457
-8.8755,0.9944
-8.8634,0.99422
-8.8513,0.99403
-8.8391,0.99384
-8.827,0.99364
-8.8149,0.99343
-8.8027,0.99322
-8.7906,0.99299
-8.7785,0.99276
-8.7664,0.99252
-8.7543,0.99228
-8.7421,0.99202
-8.73,0.99175
-8.7179,0.99148
-8.7058,0.99119
-8.6936,0.99089
-8.6815,0.99057
-8.6694,0.99025
-8.6572,0.98991
-8.6451,0.98955
-8.633,0.98918
-8.6209,0.98879
-8.6088,0.98838
-8.5966,0.98796
-8.5845,0.98751
-8.5724,0.98704
-8.5602,0.98655
-8.5481,0.98603
-8.536,0.98548
-8.5239,0.98491
-8.5117,0.9843
-8.4996,0.98365
-8.4875,0.98297
-8.4754,0.98224
-8.4633,0.98147
-8.4511,0.98065
-8.439,0.97977
-8.4269,0.97883
-8.4147,0.97782
-8.4026,0.97673
-8.3905,0.97555
-8.3784,0.97428
-8.3663,0.97289
-8.3541,0.97138
-8.342,0.96972
-8.3299,0.9679
-8.3178,0.96589
-8.3056,0.96365
-8.2935,0.96116
-8.2814,0.95838
-8.2692,0.95526
-8.2571,0.95175
-8.245,0.94779
-8.2329,0.94332
-8.2208,0.93826
-8.2086,0.93254
-8.1965,0.92606
-8.1844,0.91874
-8.1723,0.91048
-8.1601,0.90119
-8.148,0.89078
-8.1359,0.87914
-8.1237,0.86622
-8.1116,0.85192
-8.0995,0.83621
-8.0874,0.81905
-8.0753,0.80042
-8.0631,0.78035
-8.051,0.75886
-8.0389,0.73604
-8.0267,0.71199
-8.0146,0.68683
-8.0025,0.66071
-7.9904,0.63383
-7.9783,0.60637
-7.9661,0.57855
-7.954,0.55061
-7.9419,0.52278
-7.9298,0.49531
-7.9176,0.46845
-7.9055,0.44245
-7.8934,0.41754
-7.8812,0.39398
-7.8691,0.37198
-7.857,0.35176
-7.8449,0.33352
-7.8327,0.31744
-7.8206,0.30369
-7.8085,0.2924
-7.7964,0.2837
-7.7843,0.27767
-7.7721,0.27436
-7.76,0.2738
-7.7479,0.27598
-7.7358,0.28086
-7.7236,0.28834
-7.7115,0.29832
-7.6994,0.31066
-7.6872,0.32516
-7.6751,0.34165
-7.663,0.35988
-7.6509,0.37962
-7.6387,0.40063
-7.6266,0.42265
-7.6145,0.44541
-7.6024,0.46868
-7.5903,0.49219
-7.5781,0.51573
-7.566,0.53906
-7.5539,0.56198
-7.5418,0.5843
-7.5296,0.60585
-7.5175,0.62648
-7.5054,0.64604
-7.4932,0.66443
-7.4811,0.68154
-7.469,0.69728
-7.4569,0.71159
-7.4447,0.72442
-7.4326,0.73571
-7.4205,0.74544
-7.4084,0.7536
-7.3963,0.76018
-7.3841,0.76517
-7.372,0.76859
-7.3599,0.77047
-7.3477,0.77083
-7.3356,0.7697
-7.3235,0.76713
-7.3114,0.76317
-7.2992,0.75788
-7.2871,0.75134
-7.275,0.7436
-7.2629,0.73474
-7.2508,0.72482
-7.2386,0.71396
-7.2265,0.70226
-7.2144,0.6898
-7.2023,0.67668
-7.1901,0.66298
-7.178,0.64882
-7.1659,0.63434
-7.1537,0.61964
-7.1416,0.60482
-7.1295,0.58995
-7.1174,0.57518
-7.1052,0.56062
-7.0931,0.54639
-7.081,0.53258
-7.0689,0.51926
-7.0568,0.50652
-7.0446,0.4945
-7.0325,0.48328
-7.0204,0.47293
-7.0083,0.46351
-6.9961,0.45508
-6.984,0.44771
-6.9719,0.44149
-6.9597,0.43645
-6.9476,0.43261
-6.9355,0.42999
-6.9234,0.42862
-6.9112,0.42854
-6.8991,0.42976
-6.887,0.43226
-6.8749,0.43601
-6.8628,0.44097
-6.8506,0.44715
-6.8385,0.45453
-6.8264,0.46303
-6.8143,0.4726
-6.8021,0.48315
-6.79,0.49464
-6.7779,0.50701
-6.7657,0.52018
-6.7536,0.53404
-6.7415,0.5485
-6.7294,0.56349
-6.7172,0.57891
-6.7051,0.59469
-6.693,0.61073
-6.6809,0.62693
-6.6688,0.6432
-6.6566,0.65947
-6.6445,0.67567
-6.6324,0.69172
-6.6203,0.70754
-6.6081,0.72308
-6.596,0.73828
-6.5839,0.75309
-6.5717,0.76747
-6.5596,0.78138
-6.5475,0.79478
-6.5354,0.80766
-6.5232,0.81999
-6.5111,0.83175
-6.499,0.84295
-6.4869,0.85357
-6.4748,0.86362
-6.4626,0.8731
-6.4505,0.88202
-6.4384,0.89039
-6.4262,0.89823
-6.4141,0.90555
-6.402,0.91237
-6.3899,0.91872
-6.3777,0.9246
-6.3656,0.93006
-6.3535,0.9351
-6.3414,0.93975
-6.3293,0.94403
-6.3171,0.94797
-6.305,0.9516
-6.2929,0.95492
-6.2808,0.95796
-6.2686,0.96075
-6.2565,0.96331
-6.2444,0.96564
-6.2322,0.96777
-6.2201,0.96972
-6.208,0.9715
-6.1959,0.97312
-6.1837,0.9746
-6.1716,0.97596
-6.1595,0.9772
-6.1474,0.97833
-6.1353,0.97937
-6.1231,0.98032
-6.111,0.98119
-6.0989,0.98198
-6.0868,0.98272
-6.0746,0.98339
-6.0625,0.98401
-6.0504,0.98458
-6.0382,0.98511
-6.0261,0.9856
-6.014,0.98605
-6.0019,0.98647
-5.9897,0.98686
-5.9776,0.98722
-5.9655,0.98756
-5.9534,0.98787
-5.9413,0.98817
-5.9291,0.98844
-5.917,0.98869
-5.9049,0.98893
-5.8928,0.98915
-5.8806,0.98936
-5.8685,0.98956
-5.8564,0.98974
-5.8442,0.98991
-5.8321,0.99006
-5.82,0.99021
-5.8079,0.99035
-5.7957,0.99048
-5.7836,0.9906
-5.7715,0.9907
-5.7594,0.99081
-5.7473,0.9909
-5.7351,0.99098
-5.723,0.99106
-5.7109,0.99113
-5.6988,0.99119
-5.6866,0.99125
-5.6745,0.9913
-5.6624,0.99134
-5.6502,0.99137
-5.6381,0.9914
-5.626,0.99142
-5.6139,0.99144
-5.6018,0.99144
-5.5896,0.99145
-5.5775,0.99144
-5.5654,0.99143
-5.5533,0.99141
-5.5411,0.99139
-5.529,0.99136
-5.5169,0.99132
-5.5047,0.99128
-5.4926,0.99123
-5.4805,0.99117
-5.4684,0.9911
-5.4562,0.99103
-5.4441,0.99095
-5.432,0.99086
-5.4199,0.99077
-5.4078,0.99066
-5.3956,0.99055
-5.3835,0.99043
-5.3714,0.9903
-5.3593,0.99016
-5.3471,0.99001
-5.335,0.98985
-5.3229,0.98968
-5.3107,0.9895
-5.2986,0.9893
-5.2865,0.9891
-5.2744,0.98888
-5.2622,0.98865
-5.2501,0.9884
-5.238,0.98814
-5.2259,0.98786
-5.2138,0.98757
-5.2016,0.98725
-5.1895,0.98692
-5.1774,0.98657
-5.1653,0.98619
-5.1531,0.98579
-5.141,0.98536
-5.1289,0.98491
-5.1167,0.98443
-5.1046,0.98391
-5.0925,0.98337
-5.0804,0.98278
-5.0682,0.98215
-5.0561,0.98148
-5.044,0.98076
-5.0319,0.97998
-5.0198,0.97914
-5.0076,0.97824
-4.9955,0.97727
-4.9834,0.97621
-4.9713,0.97507
-4.9591,0.97382
-4.947,0.97245
-4.9349,0.97096
-4.9227,0.96931
-4.9106,0.96749
-4.8985,0.96546
-4.8864,0.9632
-4.8742,0.96067
-4.8621,0.95781
-4.85,0.95456
-4.8379,0.95086
-4.8258,0.9466
-4.8136,0.94169
-4.8015,0.936
-4.7894,0.92939
-4.7773,0.9217
-4.7651,0.91275
-4.753,0.90236
-4.7409,0.89035
-4.7287,0.87654
-4.7166,0.86077
-4.7045,0.84294
-4.6924,0.82298
-4.6803,0.80089
-4.6681,0.77676
-4.656,0.75074
-4.6439,0.72307
-4.6318,0.69408
-4.6196,0.66415
-4.6075,0.63373
-4.5954,0.60331
-4.5832,0.57338
-4.5711,0.54448
-4.559,0.51713
-4.5469,0.49182
-4.5347,0.469
-4.5226,0.4491
-4.5105,0.43246
-4.4984,0.41934
-4.4863,0.40992
-4.4741,0.40429
-4.462,0.40244
-4.4499,0.40425
-4.4378,0.40956
-4.4256,0.41809
-4.4135,0.42954
-4.4014,0.44355
-4.3892,0.45977
-4.3771,0.4778
-4.365,0.49728
-4.3529,0.51785
-4.3407,0.53916
-4.3286,0.56089
-4.3165,0.58274
-4.3044,0.60445
-4.2923,0.62575
-4.2801,0.64643
-4.268,0.66628
-4.2559,0.6851
-4.2438,0.70273
-4.2316,0.71902
-4.2195,0.73382
-4.2074,0.74702
-4.1952,0.75851
-4.1831,0.76818
-4.171,0.77596
-4.1589,0.78178
-4.1467,0.78557
-4.1346,0.7873
-4.1225,0.78695
-4.1104,0.78453
-4.0983,0.78005
-4.0861,0.77355
-4.074,0.76513
-4.0619,0.75487
-4.0498,0.74291
-4.0376,0.72939
-4.0255,0.71452
-4.0134,0.69848
-4.0012,0.68151
-3.9891,0.66385
-3.977,0.64576
-3.9649,0.62751
-3.9527,0.60937
-3.9406,0.59161
-3.9285,0.57451
-3.9164,0.55832
-3.9043,0.5433
-3.8921,0.52967
-3.88,0.51765
-3.8679,0.50743
-3.8558,0.49916
-3.8436,0.49297
-3.8315,0.48895
-3.8194,0.48716
-3.8072,0.48761
-3.7951,0.4903
-3.783,0.49517
-3.7709,0.50213
-3.7588,0.51106
-3.7466,0.52183
-3.7345,0.53425
-3.7224,0.54816
-3.7102,0.56335
-3.6981,0.57962
-3.686,0.59677
-3.6739,0.61459
-3.6618,0.63289
-3.6496,0.65148
-3.6375,0.67018
-3.6254,0.68884
-3.6132,0.7073
-3.6011,0.72544
-3.589,0.74316
-3.5769,0.76034
-3.5648,0.77691
-3.5526,0.79281
-3.5405,0.80799
-3.5284,0.8224
-3.5162,0.83603
-3.5041,0.84886
-3.492,0.8609
-3.4799,0.87214
-3.4678,0.8826
-3.4556,0.8923
-3.4435,0.90126
-3.4314,0.90952
-3.4192,0.91711
-3.4071,0.92406
-3.395,0.93041
-3.3829,0.9362
-3.3708,0.94147
-3.3586,0.94625
-3.3465,0.95059
-3.3344,0.95451
-3.3222,0.95806
-3.3101,0.96126
-3.298,0.96415
-3.2859,0.96676
-3.2738,0.96912
-3.2616,0.97124
-3.2495,0.97316
-3.2374,0.97489
-3.2252,0.97645
-3.2131,0.97787
-3.201,0.97916
-3.1889,0.98032
-3.1768,0.98139
-3.1646,0.98235
-3.1525,0.98324
-3.1404,0.98405
-3.1282,0.98479
-3.1161,0.98548
-3.104,0.98611
-3.0919,0.98669
-3.0798,0.98724
-3.0676,0.98774
-3.0555,0.98821
-3.0434,0.98865
-3.0312,0.98906
-3.0191,0.98944
-3.007,0.9898
-2.9949,0.99014
-2.9827,0.99046
-2.9706,0.99077
-2.9585,0.99105
-2.9464,0.99132
-2.9343,0.99158
-2.9221,0.99182
-2.91,0.99205
-2.8979,0.99227
-2.8857,0.99248
-2.8736,0.99268
-2.8615,0.99287
-2.8494,0.99305
-2.8373,0.99322
-2.8251,0.99338
-2.813,0.99354
-2.8009,0.99369
-2.7887,0.99383
-2.7766,0.99397
-2.7645,0.9941
-2.7524,0.99422
-2.7403,0.99434
-2.7281,0.99445
-2.716,0.99456
-2.7039,0.99466
-2.6917,0.99476
-2.6796,0.99486
-2.6675,0.99495
-2.6554,0.99503
-2.6433,0.99511
-2.6311,0.99519
-2.619,0.99526
-2.6069,0.99533
-2.5947,0.9954
-2.5826,0.99546
-2.5705,0.99552
-2.5584,0.99557
-2.5463,0.99562
-2.5341,0.99567
-2.522,0.99572
-2.5099,0.99576
-2.4977,0.9958
-2.4856,0.99584
-2.4735,0.99587
-2.4614,0.9959
-2.4493,0.99593
-2.4371,0.99596
-2.425,0.99598
-2.4129,0.996
-2.4007,0.99601
-2.3886,0.99603
-2.3765,0.99604
-2.3644,0.99605
-2.3523,0.99605
-2.3401,0.99606
-2.328,0.99606
-2.3159,0.99605
-2.3037,0.99605
-2.2916,0.99604
-2.2795,0.99603
-2.2674,0.99601
-2.2553,0.99599
-2.2431,0.99597
-2.231,0.99595
-2.2189,0.99592
-2.2067,0.99589
-2.1946,0.99586
-2.1825,0.99582
-2.1704,0.99578
-2.1582,0.99574
-2.1461,0.99569
-2.134,0.99564
-2.1219,0.99558
-2.1098,0.99552
-2.0976,0.99546
-2.0855,0.99539
-2.0734,0.99532
-2.0612,0.99524
-2.0491,0.99516
-2.037,0.99507
-2.0249,0.99498
-2.0128,0.99488
-2.0006,0.99477
-1.9885,0.99466
-1.9764,0.99455
-1.9643,0.99442
-1.9521,0.99429
-1.94,0.99416
-1.9279,0.99401
-1.9158,0.99386
-1.9036,0.99369
-1.8915,0.99352
-1.8794,0.99334
-1.8673,0.99314
-1.8551,0.99294
-1.843,0.99272
-1.8309,0.99249
-1.8188,0.99224
-1.8066,0.99198
-1.7945,0.9917
-1.7824,0.9914
-1.7703,0.99109
-1.7581,0.99075
-1.746,0.9904
-1.7339,0.99001
-1.7217,0.9896
-1.7096,0.98916
-1.6975,0.98869
-1.6854,0.98818
-1.6732,0.98764
-1.6611,0.98705
-1.649,0.98641
-1.6369,0.98572
-1.6247,0.98497
-1.6126,0.98415
-1.6005,0.98326
-1.5884,0.98228
-1.5762,0.98121
-1.5641,0.98002
-1.552,0.97871
-1.5399,0.97725
-1.5277,0.97561
-1.5156,0.97378
-1.5035,0.97171
-1.4914,0.96935
-1.4792,0.96666
-1.4671,0.96354
-1.455,0.95992
-1.4429,0.95568
-1.4307,0.95067
-1.4186,0.9447
-1.4065,0.93755
-1.3944,0.92896
-1.3822,0.91862
-1.3701,0.90624
-1.358,0.89151
-1.3459,0.87424
-1.3337,0.85433
-1.3216,0.83191
-1.3095,0.80734
-1.2974,0.78128
-1.2853,0.75462
-1.2731,0.72843
-1.261,0.70382
-1.2489,0.68179
-1.2368,0.66311
-1.2246,0.64825
-1.2125,0.63737
-1.2004,0.63035
-1.1883,0.62691
-1.1761,0.62666
-1.164,0.6292
-1.1519,0.63415
-1.1398,0.64116
-1.1276,0.64988
-1.1155,0.66004
-1.1034,0.67135
-1.0913,0.68354
-1.0791,0.69638
-1.067,0.70961
-1.0549,0.72302
-1.0428,0.73638
-1.0306,0.74947
-1.0185,0.7621
-1.0064,0.77405
-0.99425,0.78511
-0.98213,0.79506
-0.97,0.80369
-0.95788,0.81075
-0.94575,0.81599
-0.93363,0.81913
-0.9215,0.81991
-0.90938,0.8181
-0.89725,0.81349
-0.88513,0.80598
-0.873,0.79563
-0.86087,0.78264
-0.84875,0.76742
-0.83662,0.75059
-0.8245,0.73289
-0.81237,0.7152
-0.80025,0.69839
-0.78812,0.68325
-0.776,0.67044
-0.76387,0.66041
-0.75175,0.6534
-0.73962,0.64944
-0.7275,0.64842
-0.71537,0.65011
-0.70325,0.65422
-0.69112,0.66045
-0.679,0.6685
-0.66687,0.6781
-0.65475,0.689
-0.64263,0.70095
-0.6305,0.71374
-0.61838,0.72717
-0.60625,0.74105
-0.59413,0.75521
-0.582,0.76949
-0.56988,0.78374
-0.55775,0.79784
-0.54563,0.81165
-0.5335,0.82509
-0.52138,0.83806
-0.50925,0.8505
-0.49712,0.86235
-0.485,0.87357
-0.47287,0.88412
-0.46075,0.894
-0.44862,0.9032
-0.4365,0.91171
-0.42438,0.91956
-0.41225,0.92675
-0.40013,0.93333
-0.388,0.9393
-0.37588,0.94472
-0.36375,0.94961
-0.35163,0.954
-0.3395,0.95794
-0.32738,0.96145
-0.31525,0.96458
-0.30312,0.96735
-0.291,0.9698
-0.27887,0.97195
-0.26675,0.97383
-0.25462,0.97545
-0.2425,0.97684
-0.23037,0.978
-0.21825,0.97894
-0.20613,0.97966
-0.194,0.98016
-0.18188,0.98043
-0.16975,0.98044
-0.15762,0.98021
-0.1455,0.97971
-0.13337,0.97897
-0.12125,0.97802
-0.10912,0.97691
-0.097,0.97572
-0.084875,0.97456
-0.07275,0.97351
-0.060625,0.97265
-0.0485,0.97203
-0.036375,0.97166
-0.02425,0.97152
-0.012125,0.97159
0,0.97183
0.012125,0.97222
0.02425,0.97273
0.036375,0.97335
0.0485,0.97406
0.060625,0.97484
0.07275,0.97568
0.084875,0.97656
0.097,0.97748
0.10912,0.97843
0.12125,0.97938
0.13337,0.98034
0.1455,0.98129
0.15762,0.98222
0.16975,0.98313
0.18188,0.98401
0.194,0.98485
0.20613,0.98565
0.21825,0.98641
0.23037,0.98712
0.2425,0.98779
0.25462,0.9884
0.26675,0.98897
0.27887,0.98948
0.291,0.98995
0.30312,0.99038
0.31525,0.99075
0.32738,0.99109
0.3395,0.99138
0.35163,0.99164
0.36375,0.99186
0.37588,0.99204
0.388,0.9922
0.40013,0.99232
0.41225,0.99242
0.42438,0.99249
0.4365,0.99254
0.44862,0.99257
0.46075,0.99257
0.47287,0.99256
0.485,0.99253
0.49712,0.99248
0.50925,0.99242
0.52138,0.99234
0.5335,0.99224
0.54563,0.99213
0.55775,0.992
0.56988,0.99185
0.582,0.99169
0.59413,0.99152
0.60625,0.99132
0.61838,0.99111
0.6305,0.99089
0.64263,0.99064
0.65475,0.99037
0.66687,0.99008
0.679,0.98977
0.69112,0.98943
0.70325,0.98907
0.71537,0.98867
0.7275,0.98824
0.73962,0.98778
0.75175,0.98728
0.76387,0.98673
0.776,0.98614
0.78812,0.98548
0.80025,0.98477
0.81237,0.98398
0.8245,0.9831
0.83662,0.98212
0.84875,0.98102
0.86087,0.97978
0.873,0.97837
0.88513,0.97675
0.89725,0.97489
0.90938,0.97275
0.9215,0.97029
0.93363,0.96749
0.94575,0.96435
0.95788,0.96086
0.97,0.95705
0.98213,0.95298
0.99425,0.94867
1.0064,0.94416
1.0185,0.93943
1.0306,0.93439
1.0428,0.9289
1.0549,0.92276
1.067,0.91572
1.0791,0.90749
1.0913,0.89775
1.1034,0.88618
1.1155,0.87245
1.1276,0.85632
1.1398,0.83764
1.1519,0.81646
1.164,0.79308
1.1761,0.76804
1.1883,0.74218
1.2004,0.7165
1.2125,0.69209
1.2246,0.66996
1.2368,0.65092
1.2489,0.63549
1.261,0.62386
1.2731,0.61596
1.2853,0.6115
1.2974,0.61008
1.3095,0.61127
1.3216,0.61461
1.3337,0.61968
1.3459,0.62607
1.358,0.63337
1.3701,0.64116
1.3822,0.64901
1.3944,0.65651
1.4065,0.66318
1.4186,0.66859
1.4307,0.67232
1.4429,0.674
1.455,0.67338
1.4671,0.67035
1.4792,0.66499
1.4914,0.65757
1.5035,0.64858
1.5156,0.6387
1.5277,0.62868
1.5399,0.61932
1.552,0.61135
1.5641,0.60536
1.5762,0.60176
1.5884,0.60075
1.6005,0.60236
1.6126,0.60646
1.6247,0.61282
1.6369,0.62118
1.649,0.63123
1.6611,0.64272
1.6732,0.65539
1.6854,0.66902
1.6975,0.68339
1.7096,0.69831
1.7217,0.71362
1.7339,0.72914
1.746,0.74473
1.7581,0.76026
1.7703,0.7756
1.7824,0.79063
1.7945,0.80527
1.8066,0.81942
1.8188,0.83301
1.8309,0.84599
1.843,0.85831
1.8551,0.86994
1.8673,0.88086
1.8794,0.89107
1.8915,0.90055
1.9036,0.90933
1.9158,0.91742
1.9279,0.92484
1.94,0.93162
1.9521,0.9378
1.9643,0.94341
1.9764,0.94848
1.9885,0.95306
2.0006,0.95718
2.0128,0.96088
2.0249,0.9642
2.037,0.96718
2.0491,0.96984
2.0612,0.97222
2.0734,0.97435
2.0855,0.97625
2.0976,0.97795
2.1098,0.97948
2.1219,0.98085
2.134,0.98207
2.1461,0.98318
2.1582,0.98418
2.1704,0.98508
2.1825,0.9859
2.1946,0.98664
2.2067,0.98732
2.2189,0.98793
2.231,0.9885
2.2431,0.98902
2.2553,0.9895
2.2674,0.98995
2.2795,0.99036
2.2916,0.99074
2.3037,0.99109
2.3159,0.99143
2.328,0.99174
2.3401,0.99203
2.3523,0.9923
2.3644,0.99255
2.3765,0.99279
2.3886,0.99302
2.4007,0.99323
2.4129,0.99343
2.425,0.99362
2.4371,0.9938
2.4493,0.99397
2.4614,0.99413
2.4735,0.99429
2.4856,0.99443
2.4977,0.99457
2.5099,0.9947
2.522,0.99482
2.5341,0.99493
2.5463,0.99504
2.5584,0.99515
2.5705,0.99525
2.5826,0.99534
2.5947,0.99543
2.6069,0.99551
2.619,0.99559
2.6311,0.99567
2.6433,0.99574
2.6554,0.99581
2.6675,0.99587
2.6796,0.99593
2.6917,0.99599
2.7039,0.99604
2.716,0.99609
2.7281,0.99613
2.7403,0.99617
2.7524,0.99621
2.7645,0.99625
2.7766,0.99628
2.7887,0.99632
2.8009,0.99634
2.813,0.99637
2.8251,0.99639
2.8373,0.99641
2.8494,0.99643
2.8615,0.99645
2.8736,0.99646
2.8857,0.99647
2.8979,0.99648
2.91,0.99648
2.9221,0.99649
2.9343,0.99649
2.9464,0.99649
2.9585,0.99648
2.9706,0.99648
2.9827,0.99647
2.9949,0.99646
3.007,0.99645
3.0191,0.99644
3.0312,0.99642
3.0434,0.9964
3.0555,0.99638
3.0676,0.99636
3.0798,0.99633
3.0919,0.99631
3.104,0.99628
3.1161,0.99625
3.1282,0.99621
3.1404,0.99618
3.1525,0.99614
3.1646,0.9961
3.1768,0.99605
3.1889,0.99601
3.201,0.99596
3.2131,0.99591
3.2252,0.99585
3.2374,0.9958
3.2495,0.99574
3.2616,0.99568
3.2738,0.99561
3.2859,0.99555
3.298,0.99548
3.3101,0.9954
3.3222,0.99533
3.3344,0.99525
3.3465,0.99516
3.3586,0.99508
3.3708,0.99499
3.3829,0.9949
3.395,0.9948
3.4071,0.9947
3.4192,0.99459
3.4314,0.99448
3.4435,0.99437
3.4556,0.99425
3.4678,0.99413
3.4799,0.99401
3.492,0.99387
3.5041,0.99374
3.5162,0.9936
3.5284,0.99345
3.5405,0.99329
3.5526,0.99314
3.5648,0.99297
3.5769,0.9928
3.589,0.99262
3.6011,0.99243
3.6132,0.99224
3.6254,0.99204
3.6375,0.99183
3.6496,0.99161
3.6618,0.99139
3.6739,0.99115
3.686,0.9909
3.6981,0.99065
3.7102,0.99038
3.7224,0.9901
3.7345,0.98981
3.7466,0.9895
3.7588,0.98919
3.7709,0.98885
3.783,0.98851
3.7951,0.98814
3.8072,0.98776
3.8194,0.98736
3.8315,0.98694
3.8436,0.9865
3.8558,0.98604
3.8679,0.98555
3.88,0.98504
3.8921,0.98451
3.9043,0.98394
3.9164,0.98334
3.9285,0.98271
3.9406,0.98204
3.9527,0.98133
3.9649,0.98058
3.977,0.97979
3.9891,0.97894
4.0012,0.97804
4.0134,0.97709
4.0255,0.97606
4.0376,0.97497
4.0498,0.9738
4.0619,0.97254
4.074,0.97119
4.0861,0.96973
4.0983,0.96815
4.1104,0.96644
4.1225,0.96459
4.1346,0.96256
4.1467,0.96034
4.1589,0.95791
4.171,0.95522
4.1831,0.95223
4.1952,0.94891
4.2074,0.94519
4.2195,0.941
4.2316,0.93626
4.2438,0.93086
4.2559,0.92469
4.268,0.91761
4.2801,0.90947
4.2923,0.90008
4.3044,0.88926
4.3165,0.87681
4.3286,0.86253
4.3407,0.84624
4.3529,0.82776
4.365,0.80699
4.3771,0.78385
4.3892,0.75834
4.4014,0.73053
4.4135,0.70057
4.4256,0.66869
4.4378,0.63518
4.4499,0.6004
4.462,0.56475
4.4741,0.52866
4.4863,0.49255
4.4984,0.45687
4.5105,0.42203
4.5226,0.38844
4.5347,0.35646
4.5469,0.32641
4.559,0.29858
4.5711,0.2732
4.5832,0.25046
4.5954,0.23051
4.6075,0.21344
4.6196,0.1993
4.6318,0.18813
4.6439,0.17992
4.656,0.17464
4.6681,0.17223
4.6803,0.17264
4.6924,0.1758
4.7045,0.18162
4.7166,0.19
4.7287,0.20084
4.7409,0.21401
4.753,0.22939
4.7651,0.24683
4.7773,0.26616
4.7894,0.28721
4.8015,0.30979
4.8136,0.33369
4.8258,0.3587
4.8379,0.38461
4.85,0.41121
4.8621,0.43827
4.8742,0.46559
4.8864,0.49298
4.8985,0.52024
4.9106,0.5472
4.9227,0.57371
4.9349,0.59963
4.947,0.62483
4.9591,0.64921
4.9713,0.6727
4.9834,0.6952
4.9955,0.71669
5.0076,0.73711
5.0198,0.75645
5.0319,0.7747
5.044,0.79185
5.0561,0.80792
5.0682,0.82292
5.0804,0.83689
5.0925,0.84985
5.1046,0.86185
5.1167,0.87293
5.1289,0.88313
5.141,0.8925
5.1531,0.90109
5.1653,0.90894
5.1774,0.91611
5.1895,0.92265
5.2016,0.9286
5.2138,0.93401
5.2259,0.93893
5.238,0.94338
5.2501,0.94742
5.2622,0.95109
5.2744,0.95441
5.2865,0.95742
5.2986,0.96015
5.3107,0.96262
5.3229,0.96487
5.335,0.96691
5.3471,0.96877
5.3593,0.97047
5.3714,0.97201
5.3835,0.97343
5.3956,0.97473
5.4078,0.97592
5.4199,0.97701
5.432,0.97802
5.4441,0.97895
5.4562,0.97982
5.4684,0.98062
5.4805,0.98136
5.4926,0.98206
5.5047,0.9827
5.5169,0.98331
5.529,0.98388
5.5411,0.98441
5.5533,0.98491
5.5654,0.98538
5.5775,0.98583
5.5896,0.98625
5.6018,0.98665
5.6139,0.98702
5.626,0.98738
5.6381,0.98771
5.6502,0.98803
5.6624,0.98833
5.6745,0.98862
5.6866,0.9889
5.6988,0.98916
5.7109,0.9894
5.723,0.98964
5.7351,0.98986
5.7473,0.99007
5.7594,0.99028
5.7715,0.99047
5.7836,0.99065
5.7957,0.99083
5.8079,0.99099
5.82,0.99115
5.8321,0.9913
5.8442,0.99144
5.8564,0.99158
5.8685,0.99171
5.8806,0.99183
5.8928,0.99195
5.9049,0.99206
5.917,0.99216
5.9291,0.99226
